45.072	0.01727
45.792	0.01722
46.512	0.01784
47.232	0.01858
47.952	0.01858
48.68247	0.0194
49.39041	0.02008
50.09835	0.02061
50.83579	0.02097
51.54373	0.02182
52.28117	0.02216
52.98911	0.02294
53.72654	0.02325
54.43448	0.02404
55.14242	0.02462
55.87986	0.02548
56.5878	0.02608
57.32524	0.02674
58.032	0.02738
58.752	0.02847
59.472	0.02954
60.192	0.03017
60.912	0.0314
61.63187	0.03283
62.33981	0.03359
63.07725	0.03458
63.78519	0.03643
64.52263	0.0378
65.23057	0.03879
65.952	0.04013
66.672	0.04178
67.392	0.04336
68.12133	0.04473
68.82927	0.04644
69.5667	0.04842
70.27464	0.04979
70.98258	0.05093
71.72002	0.05294
72.42796	0.05428
73.1654	0.0557
73.87334	0.05724
74.58128	0.05917
75.31872	0.06093
76.02666	0.06381
76.76409	0.06657
77.472	0.06889
78.192	0.07153
78.912	0.07387
79.632	0.07585
80.352	0.07852
81.072	0.08114
81.792	0.08367
82.512	0.08688
83.22405	0.08931
83.96148	0.0917
84.672	0.09482
85.37736	0.09682
86.1148	0.09889
86.82274	0.10146
87.56018	0.10426
88.26812	0.10554
88.992	0.10796
89.712	0.11079
90.432	0.11346
91.152	0.11397
91.872	0.11727
92.592	0.12006
93.312	0.12098
94.032	0.12241
94.752	0.12558
95.472	0.12746
96.192	0.12947
96.912	0.13206
97.632	0.13469
98.352	0.13658
99.072	0.13917
100.512	0.14267
102.67943	0.14828
103.38891	0.15116
104.832	0.15479
105.54822	0.15725
106.272	0.15913
107.70753	0.16229
108.41702	0.16418
109.15735	0.16667
110.60717	0.16819
111.31666	0.17041
112.02614	0.17081
112.76648	0.17097
113.47596	0.17198
114.192	0.17315
114.912	0.17393
115.632	0.17404
116.352	0.17551
117.072	0.17713
117.792	0.17998
118.512	0.18014
119.232	0.18318
119.95389	0.18455
120.66337	0.18416
121.40371	0.1849
122.11319	0.18743
122.832	0.18792
123.552	0.18868
124.272	0.19043
124.98199	0.18999
125.72232	0.18982
126.432	0.19023
127.152	0.1926
127.872	0.19413
128.59112	0.19743
129.312	0.19891
130.032	0.2019
130.75043	0.20211
131.45991	0.20432
132.20025	0.20502
132.90973	0.2071
133.61922	0.20879
134.35955	0.21108
135.072	0.21296
135.77853	0.21378
136.512	0.21535
137.22835	0.21481
137.93783	0.21562
138.67817	0.21559
139.38766	0.21619
140.112	0.21799
140.832	0.22103
141.552	0.22175
142.272	0.22272
142.99678	0.22511
143.70627	0.2266
144.4466	0.2259
145.152	0.22634
145.86558	0.22679
146.592	0.22843
147.312	0.22892
148.032	0.23029
148.752	0.23398
149.47471	0.23525
150.192	0.23748
150.912	0.23951
151.632	0.24321
152.352	0.24374
153.072	0.2463
153.79332	0.24506
154.50281	0.24549
155.24314	0.24642
155.95263	0.24678
156.672	0.24575
157.40245	0.24636
158.112	0.24671
158.832	0.24688
159.552	0.24877
160.272	0.25357
160.992	0.25628
161.712	0.25829
162.432	0.25951
163.152	0.26213
163.872	0.26398
164.592	0.26526
165.312	0.26709
166.03968	0.26731
166.74917	0.26803
167.45865	0.26671
168.19899	0.26885
168.90848	0.27142
169.61796	0.27305
170.352	0.27414
171.072	0.27645
171.792	0.27788
172.512	0.275
173.232	0.27546
173.952	0.27402
174.672	0.27362
175.392	0.27144
176.1213	0.2738
176.82734	0.27354
177.552	0.27586
178.28221	0.27659
178.98825	0.27851
179.71568	0.2765
180.42172	0.27865
181.152	0.27801
181.872	0.27908
182.58262	0.27794
183.312	0.28072
184.032	0.2796
184.74353	0.28157
185.472	0.28154
186.192	0.28403
186.912	0.28432
187.632	0.28636
188.352	0.28564
189.072	0.28583
189.792	0.28799
190.512	0.28712
191.22624	0.28801
191.95367	0.28805
192.672	0.28889
193.392	0.28707
194.112	0.28864
194.832	0.2912
195.552	0.29392
196.272	0.29506
196.992	0.29722
197.712	0.29875
198.432	0.2978
199.152	0.29861
199.872	0.3002
200.592	0.30028
201.312	0.30206
202.06078	0.30419
202.752	0.30309
203.49086	0.30282
204.192	0.30504
204.912	0.30501
205.63599	0.30468
206.352	0.3058
207.072	0.30693
207.792	0.30639
208.512	0.30736
209.232	0.30822
209.952	0.30876
210.672	0.30882
211.392	0.31139
212.13097	0.31199
212.832	0.31099
213.552	0.31175
214.272	0.31214
214.992	0.31052
215.712	0.31212
216.432	0.31468
217.152	0.31688
217.872	0.31773
218.592	0.32001
219.312	0.32113
220.032	0.32137
220.752	0.31983
221.472	0.32085
222.20116	0.31968
222.9162	0.31794
223.63124	0.31735
224.352	0.31687
225.072	0.31691
225.792	0.31514
226.49142	0.31584
227.232	0.31503
227.98109	0.31644
228.672	0.31407
229.392	0.31313
230.112	0.31271
230.832	0.31368
231.5563	0.31285
232.272	0.314
232.992	0.31682
233.712	0.31671
234.432	0.31761
235.152	0.31833
235.872	0.31926
236.592	0.31962
237.312	0.32019
238.032	0.31839
238.752	0.31956
239.472	0.31946
240.192	0.32137
240.91145	0.32026
241.632	0.32114
242.352	0.31987
243.072	0.32015
243.792	0.31662
244.512	0.31774
245.2613	0.3174
245.952	0.31787
246.672	0.3162
247.392	0.31991
248.112	0.3208
248.832	0.32119
249.552	0.32261
250.2666	0.32326
250.992	0.32143
251.712	0.32119
252.432	0.32204
253.152	0.32148
253.872	0.32205
254.592	0.32229
255.33149	0.31987
256.032	0.32014
256.752	0.32024
257.47662	0.31928
258.19166	0.31922
258.9067	0.3199
259.62175	0.31833
260.352	0.31537
261.072	0.31516
261.792	0.31374
262.54151	0.31323
263.232	0.31284
263.952	0.31385
264.672	0.31231
265.392	0.3106
266.112	0.30965
266.832	0.30599
267.552	0.30337
268.272	0.30509
268.992	0.30751
269.712	0.30515
270.432	0.30708
271.152	0.30715
271.872	0.30617
272.592	0.30506
273.312	0.30728
274.032	0.30616
274.752	0.30884
275.472	0.3067
276.18691	0.30711
276.912	0.30821
277.632	0.30798
278.352	0.30819
279.072	0.3124
279.792	0.31205
280.512	0.30868
281.232	0.31128
281.952	0.30961
282.672	0.31074
283.392	0.30841
284.112	0.31284
284.832	0.31285
285.552	0.31451
286.272	0.31092
286.992	0.31139
287.712	0.30913
288.432	0.30613
289.152	0.30534
289.89191	0.30736
290.60695	0.30642
291.32199	0.30709
292.03704	0.31205
292.752	0.31349
293.472	0.31145
294.192	0.31382
294.89721	0.31692
295.632	0.31455
296.352	0.3125
297.04234	0.31457
297.792	0.31463
298.512	0.31178
299.232	0.31307
299.952	0.31075
300.67714	0.30869
301.392	0.30928
302.112	0.30687
302.832	0.30398
303.552	0.30813
304.272	0.30676
304.992	0.30694
305.712	0.30655
306.45707	0.30891
307.17211	0.30633
307.88716	0.30634
308.592	0.30589
309.312	0.30602
310.032	0.30585
310.752	0.30571
311.472	0.3067
312.192	0.30647
312.912	0.30636
313.6075	0.30713
314.352	0.30839
315.072	0.30779
315.792	0.30624
316.512	0.30892
317.232	0.30545
317.952	0.30492
318.672	0.30819
319.392	0.30981
320.112	0.30654
320.832	0.30914
321.552	0.30703
322.272	0.30258
322.992	0.30291
323.712	0.30685
324.432	0.3049
325.152	0.30363
325.872	0.3065
326.592	0.30427
327.312	0.30259
328.032	0.30089
328.752	0.30517
329.472	0.30452
330.192	0.30286
330.912	0.30154
331.632	0.29951
332.352	0.29995
333.072	0.29795
333.792	0.29772
334.512	0.29708
335.232	0.30187
335.952	0.29929
336.672	0.301